wavelength	n	k
29.9919	0.925222	0.121265
30.1236	0.924148	0.121903
30.2558	0.922739	0.122539
30.3887	0.921308	0.124188
30.5221	0.920206	0.125917
30.656	0.919301	0.127636
30.7906	0.918523	0.129346
30.9258	0.917841	0.131045
31.0616	0.917236	0.132734
31.1979	0.916696	0.134413
31.3349	0.916211	0.136081
31.4724	0.915775	0.137738
31.6106	0.915383	0.139383
31.7494	0.915031	0.141018
31.8887	0.914714	0.142641
32.0287	0.91443	0.144252
32.1693	0.914176	0.145852
32.3105	0.91395	0.147439
32.4524	0.913749	0.149015
32.5948	0.913572	0.150578
32.7379	0.913417	0.152128
32.8817	0.913282	0.153666
33.026	0.913166	0.155192
33.171	0.913068	0.156705
33.3166	0.912986	0.158205
33.4629	0.912919	0.159691
33.6098	0.912866	0.161165
33.7573	0.912826	0.162626
33.9055	0.912798	0.164073
34.0543	0.91278	0.165507
34.2038	0.912773	0.166928
34.354	0.912774	0.168335
34.5048	0.912782	0.169729
34.6563	0.912798	0.171108
34.8084	0.91282	0.172474
34.9612	0.912848	0.173826
35.1147	0.912879	0.175164
35.2688	0.912914	0.176488
35.4237	0.912952	0.177797
35.5792	0.912992	0.179092
35.7354	0.913032	0.180373
35.8922	0.913073	0.181638
36.0498	0.913113	0.18289
36.208	0.913151	0.184126
36.367	0.913187	0.185347
36.5266	0.91322	0.186552
36.687	0.913249	0.187742
36.848	0.913273	0.188917
37.0098	0.91329	0.190076
37.1723	0.913301	0.191218
37.3355	0.913304	0.192344
37.4994	0.913298	0.193454
37.664	0.913282	0.194547
37.8293	0.913256	0.195622
37.9954	0.913217	0.19668
38.1622	0.913165	0.19772
38.3297	0.913099	0.198742
38.498	0.913018	0.199746
38.667	0.912919	0.20073
38.8367	0.912803	0.201694
39.0072	0.912667	0.202638
39.1784	0.912509	0.203561
39.3504	0.912329	0.204462
39.5232	0.912124	0.205341
39.6967	0.911892	0.206197
39.8709	0.911631	0.207028
40.046	0.911338	0.207833
40.2218	0.911008	0.208611
40.3983	0.910638	0.209358
40.5757	0.910215	0.210073
40.7538	0.909729	0.210773
40.9327	0.909201	0.211506
41.1124	0.90865	0.212223
41.2929	0.908066	0.212913
41.4742	0.907445	0.213575
41.6562	0.906781	0.214204
41.8391	0.906068	0.214797
42.0228	0.905303	0.215351
42.2072	0.90448	0.215863
42.3925	0.903592	0.216329
42.5786	0.902633	0.216745
42.7655	0.901596	0.217104
42.9533	0.900471	0.217403
43.1418	0.899248	0.217633
43.3312	0.897915	0.217786
43.5214	0.896456	0.217852
43.7125	0.894851	0.217816
43.9044	0.893073	0.217661
44.0971	0.89108	0.217359
44.2907	0.888807	0.21687
44.4851	0.886119	0.216115
44.6804	0.882553	0.214887
44.8766	0.878348	0.215072
45.0736	0.874226	0.215889
45.2714	0.870237	0.216823
45.4702	0.866251	0.217699
45.6698	0.862125	0.218403
45.8703	0.85764	0.218791
46.0716	0.852194	0.21854
46.2739	0.845459	0.219177
46.477	0.838358	0.222152
46.6811	0.831821	0.22628
46.886	0.825903	0.230786
47.0918	0.820443	0.235449
47.2985	0.815318	0.240155
47.5062	0.810427	0.244826
47.7147	0.80568	0.249392
47.9242	0.800983	0.253783
48.1346	0.796222	0.257913
48.3459	0.791246	0.261662
48.5581	0.785807	0.264841
48.7713	0.779386	0.267079
48.9854	0.770125	0.267319
49.2004	0.757826	0.271658
49.4164	0.745432	0.281446
49.6333	0.734677	0.293601
49.8512	0.725503	0.306861
50.0701	0.717622	0.320765
50.2899	0.710787	0.335065
50.5106	0.704736	0.349557
50.7324	0.698967	0.363928
50.9551	0.69219	0.378138
51.1788	0.686577	0.399372
51.4034	0.685944	0.422188
51.6291	0.686235	0.436463
51.8557	0.683942	0.453521
52.0834	0.684162	0.478656
52.312	0.689812	0.502338
52.5417	0.697947	0.521008
52.7723	0.706307	0.537604
53.004	0.714735	0.553337
53.2367	0.723456	0.5687
53.4704	0.73293	0.584091
53.7051	0.743658	0.598995
53.9409	0.755311	0.611902
54.1777	0.767008	0.622974
54.4155	0.778405	0.633135
54.6544	0.789569	0.642653
54.8943	0.800562	0.651655
55.1353	0.811426	0.660221
55.3773	0.822196	0.668406
55.6204	0.832896	0.676253
55.8646	0.843548	0.683795
56.1098	0.854171	0.691059
56.3562	0.864781	0.698066
56.6036	0.875395	0.704838
56.852	0.886026	0.711389
57.1016	0.896693	0.717734
57.3523	0.907414	0.723883
57.6041	0.918197	0.729824
57.8569	0.929049	0.735579
58.1109	0.939987	0.741165
58.366	0.951033	0.746594
58.6222	0.962218	0.751876
58.8796	0.973578	0.757024
59.1381	0.98517	0.762054
59.3977	0.997087	0.766991
59.6584	1.009527	0.771885
59.9203	1.022967	0.77671
60.1834	1.037218	0.779506
60.4476	1.050956	0.779711
60.7129	1.063504	0.779183
60.9794	1.074883	0.778053
61.2471	1.084463	0.776296
61.516	1.09315	0.777796
61.7861	1.102642	0.780571
62.0573	1.113048	0.783446
62.3297	1.124223	0.786333
62.6033	1.136286	0.789214
62.8782	1.149873	0.792139
63.1542	1.163911	0.791198
63.4314	1.176999	0.789496
63.7099	1.189466	0.787433
63.9896	1.201496	0.785068
64.2705	1.213175	0.782429
64.5526	1.224552	0.779538
64.836	1.235659	0.776409
65.1206	1.246522	0.773056
65.4065	1.257165	0.769487
65.6936	1.267616	0.765712
65.982	1.277927	0.761735
66.2717	1.288129	0.757436
66.5626	1.298106	0.752602
66.8548	1.307786	0.747501
67.1483	1.317297	0.742172
67.4431	1.32654	0.736102
67.7391	1.335435	0.729683
68.0365	1.343809	0.722219
68.3352	1.35111	0.713819
68.6352	1.357095	0.705249
68.9365	1.361815	0.696783
69.2391	1.365223	0.68849
69.543	1.367051	0.680494
69.8483	1.366656	0.673261
70.155	1.365613	0.671523
70.4629	1.366384	0.672269
70.7723	1.36873	0.672676
71.0829	1.371698	0.672939
71.395	1.374723	0.673201
71.7084	1.376843	0.673776
72.0232	1.380593	0.681587
72.3394	1.390648	0.69189
72.6569	1.404711	0.693496
72.9759	1.4176	0.68992
73.2962	1.428864	0.686483
73.618	1.439793	0.682902
73.9412	1.450948	0.678979
74.2658	1.462661	0.674005
74.5918	1.474084	0.665948
74.9193	1.483691	0.655694
75.2481	1.491426	0.645833
75.5785	1.497995	0.636216
75.9103	1.50364	0.626804
76.2435	1.508482	0.617591
76.5782	1.512582	0.608593
76.9144	1.51596	0.599843
77.252	1.518591	0.591411
77.5911	1.520463	0.58357
77.9318	1.521958	0.577077
78.2739	1.523838	0.571832
78.6175	1.526195	0.566353
78.9626	1.528649	0.560782
79.3092	1.531088	0.555171
79.6574	1.533458	0.549546
80.0071	1.535733	0.543925
80.3583	1.537895	0.538318
80.7111	1.539937	0.532735
81.0654	1.541852	0.527179
81.4213	1.543639	0.521653
81.7787	1.545303	0.516154
82.1377	1.546854	0.510664
82.4983	1.548272	0.505085
82.8604	1.549378	0.499208
83.2242	1.549932	0.493281
83.5895	1.550008	0.487919
83.9565	1.550052	0.483356
84.325	1.550201	0.478763
84.6952	1.550279	0.47422
85.067	1.550241	0.469755
85.4405	1.55007	0.465379
85.8155	1.549761	0.461091
86.1923	1.549318	0.456861
86.5706	1.548716	0.452539
86.9507	1.547536	0.447532
87.3324	1.5451	0.44234
87.7158	1.541323	0.438345
88.1008	1.536346	0.435819
88.4876	1.5301	0.436086
88.876	1.526843	0.446266
89.2662	1.533004	0.459205
89.6581	1.542282	0.453815
90.0517	1.544354	0.442449
90.447	1.53981	0.43726
90.844	1.537663	0.446421
91.2428	1.542344	0.452922
91.6434	1.550929	0.455904
92.0457	1.561941	0.453592
92.4497	1.57012	0.439965
92.8556	1.572935	0.427591
93.2632	1.572951	0.415678
93.6726	1.56904	0.401269
94.0838	1.56047	0.390121
94.4969	1.548921	0.383402
94.9117	1.536161	0.382669
95.3284	1.527699	0.392156
95.7468	1.524122	0.395446
96.1672	1.520482	0.395566
96.5893	1.516092	0.39499
97.0133	1.509704	0.390313
97.4392	1.493412	0.377165
97.867	1.468672	0.384131
98.2966	1.451511	0.411995
98.7281	1.443294	0.43027
99.1615	1.430197	0.438304
99.5968	1.410291	0.461196
100.034	1.39467	0.504175
100.473	1.394182	0.561164
100.914	1.406965	0.608032
101.357	1.426614	0.65332
101.802	1.450337	0.693004
102.249	1.478988	0.74001
102.698	1.518661	0.791328
103.149	1.569325	0.838845
103.602	1.637783	0.898753
104.056	1.741224	0.9589
104.513	1.880297	0.972986
104.972	2.014147	0.887666
105.433	2.097264	0.75041
105.896	2.121767	0.616078
106.361	2.111039	0.5304
106.827	2.101072	0.492356
107.296	2.106338	0.459934
107.767	2.123857	0.423267
108.241	2.1427	0.358978
108.716	2.141217	0.267565
109.193	2.106695	0.178498
109.672	2.052598	0.131735
110.154	2.006438	0.124047
110.637	1.974922	0.116392
111.123	1.950236	0.108771
111.611	1.929626	0.101183
112.101	1.911703	0.093629
112.593	1.895621	0.086107
113.087	1.880776	0.078618
113.584	1.866709	0.071337
114.082	1.853466	0.06495
114.583	1.841058	0.058591
115.086	1.829123	0.05226
115.591	1.817382	0.045956
116.099	1.805479	0.03968
116.608	1.792667	0.033503
117.12	1.780255	0.03164
117.634	1.769535	0.029786
118.151	1.759754	0.02794
118.669	1.750613	0.026102
119.19	1.741882	0.024272
119.714	1.733613	0.022941
120.239	1.725884	0.021625
120.767	1.718549	0.020315
121.297	1.711487	0.01901
121.83	1.7047	0.017978
122.364	1.698347	0.017231
122.902	1.692497	0.016486
123.441	1.687244	0.015745
123.983	1.68219	0.013826
124.527	1.67666	0.011427
125.074	1.67033	0.009037
125.623	1.663965	0.008738
126.175	1.658303	0.008544
126.728	1.653062	0.008351
127.285	1.64812	0.008158
127.844	1.643419	0.007966
128.405	1.638921	0.007775
128.968	1.634597	0.007585
129.535	1.630418	0.007396
130.103	1.62639	0.007279
130.674	1.622525	0.007171
131.248	1.618808	0.007064
131.824	1.615223	0.006958
132.403	1.611762	0.006851
132.984	1.608424	0.006746
133.568	1.605201	0.006619
134.154	1.602063	0.006439
134.743	1.598988	0.00626
135.335	1.595979	0.006082
135.929	1.593031	0.005904
136.526	1.590134	0.005725
137.125	1.587268	0.005547
137.727	1.584389	0.00538
138.331	1.581601	0.005527
138.939	1.579009	0.005673
139.549	1.576586	0.005819
140.161	1.574295	0.005851
140.777	1.572076	0.005798
141.395	1.569897	0.005664
142.015	1.56772	0.00546
142.639	1.565534	0.005258
143.265	1.563341	0.005056
143.894	1.561128	0.004881
144.525	1.558963	0.004884
145.16	1.556899	0.004887
145.797	1.55491	0.00489
146.437	1.55299	0.004893
147.08	1.551137	0.004881
147.726	1.549326	0.004813
148.374	1.547537	0.004744
149.026	1.545778	0.004677
149.68	1.544049	0.004609
150.337	1.542352	0.004542
150.997	1.540682	0.004475
151.66	1.539036	0.004409
152.325	1.537423	0.004378
152.994	1.535856	0.004348
153.666	1.534329	0.004318
154.34	1.532841	0.004289
155.018	1.531395	0.004259
155.698	1.529999	0.004229
156.382	1.528655	0.004169
157.068	1.527324	0.004018
157.758	1.52598	0.003868
158.45	1.524637	0.003718
159.146	1.5233	0.003569
159.845	1.521966	0.003421
160.546	1.520641	0.003289
161.251	1.519329	0.003161
161.959	1.518027	0.003033
162.67	1.516726	0.002906
163.384	1.515418	0.002795
164.101	1.514134	0.002762
164.822	1.512894	0.002729
165.545	1.511685	0.002697
166.272	1.510503	0.002665
167.002	1.509344	0.002633
167.735	1.508206	0.002601
168.471	1.507089	0.002569
169.211	1.505992	0.002537
169.954	1.504913	0.002506
170.7	1.503851	0.002475
171.449	1.502807	0.002443
172.202	1.50178	0.002412
172.958	1.500768	0.002381
173.717	1.499772	0.00235
174.48	1.498792	0.00232
175.246	1.497826	0.002289
176.015	1.496874	0.002257
176.788	1.495935	0.002226
177.564	1.495009	0.002195
178.343	1.494096	0.002164
179.126	1.493195	0.002133
179.912	1.492306	0.002103
180.702	1.491427	0.002072
181.496	1.490558	0.002041
182.292	1.489694	0.002011
183.093	1.488843	0.002
183.896	1.488009	0.00199
184.704	1.48719	0.00198
185.514	1.486385	0.00197
186.329	1.485592	0.00196
187.147	1.484811	0.00195
187.968	1.484042	0.001941
188.793	1.483285	0.00193
189.622	1.482538	0.001921
190.455	1.481802	0.001912
191.291	1.481077	0.001902
192.131	1.480362	0.001893
192.974	1.479657	0.001883
193.821	1.478961	0.001873
194.672	1.478275	0.001864
195.527	1.477599	0.001855
196.385	1.476931	0.001846
197.247	1.476273	0.001837
198.113	1.475624	0.001827
198.983	1.474983	0.001818
199.856	1.47435	0.001809
200.733	1.473726	0.0018
201.615	1.47311	0.001791
202.5	1.472503	0.001783
203.389	1.471903	0.001774
204.282	1.471311	0.001766
205.178	1.470727	0.001757
206.079	1.47015	0.001748
206.984	1.46958	0.001739
207.892	1.469017	0.001731
208.805	1.468462	0.001723
209.722	1.467914	0.001714
210.642	1.467373	0.001706
211.567	1.466838	0.001697
212.496	1.46631	0.00169
213.429	1.465789	0.001681
214.365	1.465274	0.001673
215.307	1.464765	0.001665
216.252	1.464263	0.001657
217.201	1.463766	0.001649
218.155	1.463276	0.00164
219.112	1.462792	0.001633
220.074	1.462313	0.001625
221.04	1.46184	0.001617
222.011	1.461373	0.001609
222.985	1.460912	0.001602
223.964	1.460456	0.001594
224.947	1.460006	0.001586
225.935	1.45956	0.001579
226.927	1.45912	0.001571
227.923	1.458686	0.001563
228.923	1.458256	0.001555
229.928	1.457831	0.001549
230.938	1.457412	0.001541
231.951	1.456997	0.001534
232.97	1.456587	0.001526
233.992	1.456181	0.001519
235.02	1.455781	0.001512
236.051	1.455385	0.001504
237.088	1.454993	0.001498
238.128	1.454606	0.00149
239.174	1.454224	0.001483
240.224	1.453846	0.001476
241.278	1.453472	0.001469
242.337	1.453102	0.001462
243.401	1.452737	0.001455
244.47	1.452375	0.001448
245.543	1.452018	0.001442
246.621	1.451664	0.001434
247.703	1.451315	0.001428
248.791	1.450969	0.001421
249.883	1.450628	0.001414
250.98	1.45029	0.001407
252.082	1.449955	0.001401
253.188	1.449625	0.001395
254.3	1.449299	0.001387
255.416	1.448975	0.001381
256.537	1.448655	0.001375
257.664	1.448339	0.001368
258.795	1.448027	0.001361
259.931	1.447717	0.001355
261.072	1.447411	0.001349
262.218	1.447109	0.001343
263.369	1.446809	0.001336
264.525	1.446513	0.00133
265.687	1.44622	0.001324
266.853	1.44593	0.001318
268.024	1.445644	0.001312
269.201	1.44536	0.001305
270.383	1.445079	0.001299
271.57	1.444802	0.001293
272.762	1.444527	0.001287
273.959	1.444255	0.001281
275.162	1.443987	0.001276
276.37	1.443721	0.001269
277.583	1.443457	0.001263
278.802	1.443197	0.001257
280.025	1.442939	0.001252
281.255	1.442684	0.001246
282.489	1.442432	0.00124
283.73	1.442183	0.001234
284.975	1.441936	0.001229
286.226	1.441691	0.001222
287.483	1.441449	0.001217
288.745	1.44121	0.001211
290.012	1.440973	0.001206
291.285	1.440738	0.0012
292.564	1.440506	0.001195
293.848	1.440277	0.001189
295.138	1.44005	0.001184
296.434	1.439825	0.001178
297.735	1.439602	0.001173
299.042	1.439382	0.001168
300.355	1.439164	0.001162
301.674	1.438948	0.001157
302.998	1.438735	0.001151
304.328	1.438524	0.001145
305.664	1.438314	0.00114
307.006	1.438107	0.001135
308.354	1.437902	0.00113
309.707	1.437699	0.001125
311.067	1.437498	0.001119
312.432	1.437299	0.001114
313.804	1.437102	0.001109
315.182	1.436907	0.001104
316.565	1.436714	0.001099
317.955	1.436523	0.001094
319.351	1.436334	0.001089
320.753	1.436147	0.001084
322.161	1.435962	0.001079
323.575	1.435779	0.001074
324.995	1.435597	0.001069
326.422	1.435417	0.001064
327.855	1.435239	0.001059
329.294	1.435063	0.001054
330.74	1.434889	0.00105
332.192	1.434716	0.001045
333.65	1.434545	0.00104
335.115	1.434375	0.001035
336.586	1.434208	0.00103
338.063	1.434041	0.001026
339.547	1.433877	0.001022
341.038	1.433715	0.001017
342.535	1.433554	0.001013
344.039	1.433395	0.001008
345.549	1.433237	0.001003
347.066	1.43308	0.000999
348.59	1.432926	0.000994
350.12	1.432772	0.00099
351.657	1.432621	0.000985
353.201	1.43247	0.00098
354.751	1.432321	0.000976
356.309	1.432174	0.000971
357.873	1.432028	0.000967
359.444	1.431883	0.000963
361.022	1.43174	0.000958
362.607	1.431598	0.000954
364.198	1.431458	0.000949
365.797	1.431318	0.000945
367.403	1.431181	0.000942
369.016	1.431045	0.000937
370.636	1.43091	0.000933
372.263	1.430776	0.000929
373.897	1.430644	0.000924
375.538	1.430513	0.00092
377.187	1.430383	0.000916
378.843	1.430254	0.000912
380.506	1.430127	0.000907
382.176	1.430001	0.000903
383.854	1.429876	0.000899
385.539	1.429752	0.000895
387.232	1.429629	0.000892
388.931	1.429508	0.000888
390.639	1.429388	0.000883
392.354	1.429269	0.000879
394.076	1.429151	0.000875
395.806	1.429034	0.000871
397.544	1.428919	0.000867
399.289	1.428804	0.000863
401.042	1.42869	0.000859
402.802	1.428578	0.000855
404.57	1.428466	0.000852
406.346	1.428356	0.000848
408.13	1.428247	0.000844
409.922	1.428139	0.00084
411.721	1.428032	0.000837
413.529	1.427926	0.000833
415.344	1.42782	0.000829
417.167	1.427716	0.000825
418.999	1.427613	0.000821
420.838	1.42751	0.000818
422.686	1.42741	0.000815
424.541	1.427309	0.000811
426.405	1.42721	0.000807
428.277	1.427112	0.000803
430.157	1.427014	0.0008
432.045	1.426918	0.000796
433.942	1.426822	0.000792
435.847	1.426727	0.000789
437.76	1.426633	0.000786
439.682	1.42654	0.000782
441.612	1.426448	0.000779
443.551	1.426357	0.000775
445.498	1.426267	0.000771
447.453	1.426177	0.000768
449.418	1.426088	0.000764
451.391	1.426	0.000761
453.372	1.425913	0.000758
455.362	1.425827	0.000755
457.361	1.425742	0.000751
459.369	1.425657	0.000748
461.386	1.425573	0.000744
463.411	1.42549	0.000741
465.446	1.425408	0.000737
467.489	1.425326	0.000735
469.541	1.425246	0.000731
471.602	1.425166	0.000728
473.673	1.425086	0.000725
475.752	1.425008	0.000721
477.841	1.42493	0.000718
479.938	1.424853	0.000715
482.045	1.424776	0.000711
484.161	1.4247	0.000709
486.287	1.424626	0.000706
488.421	1.424552	0.000702
490.566	1.424478	0.000699
492.719	1.424405	0.000696
494.882	1.424333	0.000693
497.055	1.424261	0.000689
499.237	1.42419	0.000687
501.428	1.42412	0.000684
503.629	1.424051	0.000681
505.84	1.423982	0.000678
508.061	1.423913	0.000674
510.291	1.423846	0.000671
512.531	1.423778	0.000668
514.781	1.423712	0.000665
517.041	1.423646	0.000663
519.311	1.423581	0.00066
521.591	1.423516	0.000657
523.88	1.423452	0.000654
526.18	1.423389	0.000651
528.49	1.423326	0.000648
530.81	1.423263	0.000645
533.14	1.423201	0.000643
535.481	1.423141	0.00064
537.831	1.42308	0.000637
540.192	1.42302	0.000634
542.564	1.422961	0.000631
544.946	1.422902	0.000628
547.338	1.422843	0.000625
549.741	1.422785	0.000622
552.154	1.422727	0.00062
554.578	1.422671	0.000617
557.012	1.422615	0.000614
559.458	1.422559	0.000611
561.914	1.422504	0.000609
564.38	1.422449	0.000606
566.858	1.422394	0.000603
569.346	1.42234	0.000601
571.846	1.422287	0.000598
574.356	1.422235	0.000596
576.877	1.422182	0.000593
579.41	1.42213	0.00059
581.953	1.422079	0.000587
584.508	1.422028	0.000585
587.074	1.421977	0.000583
589.651	1.421927	0.00058
592.24	1.421878	0.000577
594.84	1.421829	0.000575
597.451	1.42178	0.000572
600.074	1.421732	0.000569
602.708	1.421684	0.000567
605.354	1.421636	0.000564
608.011	1.42159	0.000562
610.68	1.421543	0.00056
613.361	1.421497	0.000557
616.054	1.421452	0.000555
618.758	1.421406	0.000552
621.475	1.421361	0.000549
624.203	1.421317	0.000547
626.943	1.421273	0.000545
629.695	1.421229	0.000543
632.459	1.421186	0.00054
635.236	1.421143	0.000538
638.025	1.421101	0.000535
640.825	1.421059	0.000533
643.639	1.421017	0.00053
646.464	1.420975	0.000528
649.302	1.420935	0.000526
652.152	1.420894	0.000524
655.015	1.420854	0.000521
657.891	1.420814	0.000519
660.779	1.420775	0.000516
663.68	1.420736	0.000514
666.593	1.420697	0.000512
669.519	1.420658	0.00051
672.458	1.42062	0.000508
675.41	1.420583	0.000505
678.375	1.420545	0.000503
681.353	1.420508	0.000501
684.345	1.420471	0.000498
687.349	1.420435	0.000496
690.366	1.420398	0.000494
693.397	1.420363	0.000492
696.441	1.420328	0.00049
699.498	1.420293	0.000488
702.569	1.420258	0.000486
705.653	1.420223	0.000483
708.751	1.420189	0.000481
711.862	1.420155	0.000479
714.987	1.420121	0.000477
718.126	1.420088	0.000475
721.278	1.420055	0.000473
724.445	1.420023	0.000471
727.625	1.41999	0.000469
730.819	1.419958	0.000466
734.027	1.419926	0.000464
737.25	1.419895	0.000462
740.486	1.419863	0.00046
743.737	1.419832	0.000459
747.002	1.419802	0.000457
750.281	1.419772	0.000455
753.575	1.419742	0.000452
756.883	1.419712	0.00045
760.205	1.419682	0.000448
763.543	1.419653	0.000446
766.895	1.419623	0.000444
770.261	1.419594	0.000443
773.642	1.419566	0.000441
777.039	1.419538	0.000439
780.45	1.41951	0.000437
783.876	1.419482	0.000435
787.317	1.419454	0.000433
790.773	1.419427	0.000431
794.245	1.4194	0.000429
